Energy,TotalEfficiency
520.16,3.34814315049743e-14
545.115907203907,3.01806387213665e-13
570.071814407814,1.92915418931908e-12
595.027721611722,9.32591903029536e-12
619.983628815629,3.58609471356469e-11
644.939536019536,1.14155743470605e-10
669.895443223443,3.10569655873354e-10
694.85135042735,7.40868202001288e-10
719.807257631258,1.58223664397013e-09
744.763164835165,3.07695706186421e-09
769.719072039072,5.52521080932402e-09
794.674979242979,9.26751325302718e-09
819.630886446887,1.4659903821234e-08
844.586793650794,2.20463629885562e-08
869.542700854701,3.17328836761815e-08
894.498608058608,4.39665757410718e-08
919.454515262515,5.89216942398284e-08
944.410422466422,7.66930395635525e-08
969.36632967033,9.72960710397069e-08
994.322236874237,1.20672404244962e-07
1019.27814407814,1.46699091852232e-07
1044.23405128205,1.75200117975949e-07
1069.18995848596,2.05958751734752e-07
1094.14586568987,2.38729707565933e-07
1119.10177289377,2.73250375497243e-07
1144.05768009768,3.09250669719244e-07
1169.01358730159,3.46461276666703e-07
1193.96949450549,3.84620258532401e-07
1218.9254017094,4.23478088445783e-07
1243.88130891331,4.62801268017242e-07
1268.83721611722,5.02374716710311e-07
1293.79312332112,5.42003135319541e-07
1318.74903052503,5.8151154110982e-07
1343.70493772894,6.20745156619655e-07
1368.66084493285,6.59568812772162e-07
1393.61675213675,6.97866003327578e-07
1418.57265934066,7.35537704210445e-07
1443.52856654457,7.72501049302359e-07
1468.48447374847,8.08687934693297e-07
1493.44038095238,8.44043606458899e-07
1518.39628815629,8.78531187684401e-07
1543.3521953602,9.12132068838735e-07
1568.3081025641,9.4482123482768e-07
1593.26400976801,9.76581224107752e-07
1618.21991697192,1.00740186807737e-06
1643.17582417582,1.03727932465528e-06
1668.13173137973,1.06621519576836e-06
1693.08763858364,1.09421572791807e-06
1718.04354578755,1.12129109315642e-06
1742.99945299145,1.14745474654121e-06
1767.95536019536,1.17272285532946e-06
1792.91126739927,1.19711379470514e-06
1817.86717460317,1.22064770463625e-06
1842.82308180708,1.24334610244871e-06
1867.77898901099,1.26523154583362e-06
1892.7348962149,1.28632734123635e-06
1917.6908034188,1.30665729285753e-06
1942.64671062271,1.32624548782889e-06
1967.60261782662,1.34511611346768e-06
1992.55852503053,1.36329330286293e-06
2017.51443223443,1.38080280991973e-06
2042.47033943834,1.39767308364598e-06
2067.42624664225,1.41392693801642e-06
2092.38215384615,1.42958645875021e-06
2117.33806105006,1.44467328167086e-06
2142.29396825397,1.45920854461236e-06
2167.24987545788,1.47321284993459e-06
2192.20578266178,1.48670623619011e-06
2217.16168986569,1.49970815765337e-06
2242.1175970696,1.51223747057626e-06
2267.0735042735,1.52431242517066e-06
2292.02941147741,1.53595066244199e-06
2316.98531868132,1.54716921510669e-06
2341.94122588523,1.55798451192467e-06
2366.89713308913,1.56841238486382e-06
2391.85304029304,1.57846807859057e-06
2416.80894749695,1.58816626184795e-06
2441.76485470085,1.59752104034249e-06
2466.72076190476,1.60654597081347e-06
2491.67666910867,1.61525407600434e-06
2516.63257631258,1.6236578602965e-06
2541.58848351648,1.63176932580082e-06
2566.54439072039,1.63959998873331e-06
2591.5002979243,1.64716089592817e-06
2616.45620512821,1.65446264136495e-06
2641.41211233211,1.6615153826068e-06
2666.36801953602,1.66832885706456e-06
2691.32392673993,1.67491239801654e-06
2716.27983394383,1.68127495032723e-06
2741.23574114774,1.68742508581938e-06
2766.19164835165,1.69337101826361e-06
2791.14755555556,1.69912061795835e-06
2816.10346275946,1.70468142587964e-06
2841.05936996337,1.71006066738674e-06
2866.01527716728,1.71526526547448e-06
2890.97118437118,1.7203018535677e-06
2915.92709157509,1.72517678785666e-06
2940.882998779,1.72989615917559e-06
2965.83890598291,1.73446580442873e-06
2990.79481318681,1.73889131757062e-06
3015.75072039072,1.74317865835464e-06
3040.70662759463,1.74733499288325e-06
3065.66253479854,1.75136508925041e-06
3090.61844200244,1.75527333281475e-06
3115.57434920635,1.75906394594958e-06
3140.53025641026,1.76274099397246e-06
3165.48616361416,1.76630839090826e-06
3190.44207081807,1.76976990508351e-06
3215.39797802198,1.7731291645511e-06
3240.35388522589,1.77638966234521e-06
3265.30979242979,1.77955476156725e-06
3290.2656996337,1.78262770030406e-06
3315.22160683761,1.78561159638048e-06
3340.17751404151,1.78850945194857e-06
3365.13342124542,1.79132415791644e-06
3390.08932844933,1.79405849821979e-06
3415.04523565324,1.79671515393957e-06
3440.00114285714,1.79929670726954e-06
3464.95705006105,1.80180564533741e-06
3489.91295726496,1.80424436388352e-06
3514.86886446886,1.80661517080125e-06
3539.82477167277,1.808920289543e-06
3564.78067887668,1.81116186239611e-06
3589.73658608059,1.81334195363262e-06
3614.69249328449,1.81546255253721e-06
3639.6484004884,1.81752557631719e-06
3664.60430769231,1.81953287289874e-06
3689.56021489621,1.82148622361327e-06
3714.51612210012,1.82338734577786e-06
3739.47202930403,1.82523789517363e-06
3764.42793650794,1.82703946842568e-06
3789.38384371184,1.82879360528847e-06
3814.33975091575,1.83050179083993e-06
3839.29565811966,1.832165457588e-06
3864.25156532357,1.83378598749286e-06
3889.20747252747,1.83536471390813e-06
3914.16337973138,1.83690292344419e-06
3939.11928693529,1.83840185775677e-06
3964.07519413919,1.83986271526363e-06
3989.0311013431,1.84128665279235e-06
4013.98700854701,1.84267494513879e-06
4038.94291575092,1.84402938494057e-06
4063.89882295482,1.84535102724323e-06
4088.85473015873,1.84664079719327e-06
4113.81063736264,1.84789959115126e-06
4138.76654456655,1.84912827762995e-06
4163.72245177045,1.85032769820263e-06
4188.67835897436,1.85149866838259e-06
4213.63426617827,1.85264197847445e-06
4238.59017338217,1.853758394398e-06
4263.54608058608,1.8548486584855e-06
4288.50198778999,1.85591349025284e-06
4313.4578949939,1.85695358714563e-06
4338.4138021978,1.85796962526077e-06
4363.36970940171,1.85896226004423e-06
4388.32561660562,1.85993212696574e-06
4413.28152380952,1.86087984217116e-06
4438.23743101343,1.86180600311312e-06
4463.19333821734,1.86271118916064e-06
4488.14924542125,1.86359596218839e-06
4513.10515262515,1.86446086714621e-06
4538.06105982906,1.86530643260954e-06
4563.01696703297,1.86613317131137e-06
4587.97287423687,1.86694158065622e-06
4612.92878144078,1.86773214321696e-06
4637.88468864469,1.86850532721472e-06
4662.8405958486,1.86926158698268e-06
4687.7965030525,1.87000136341426e-06
4712.75241025641,1.87072508439606e-06
4737.70831746032,1.87143316522622e-06
4762.66422466423,1.87212600901865e-06
4787.62013186813,1.87280400709358e-06
4812.57603907204,1.8734675393549e-06
4837.53194627595,1.87411697465471e-06
4862.48785347985,1.87475267114563e-06
4887.44376068376,1.87537497662109e-06
4912.39966788767,1.87598422884419e-06
4937.35557509158,1.8765807558654e-06
4962.31148229548,1.87716487632953e-06
4987.26738949939,1.87773689977231e-06
5012.2232967033,1.87829720836713e-06
5037.1792039072,1.87884657767641e-06
5062.13511111111,1.87938531543061e-06
5087.09101831502,1.8799136342242e-06
5112.04692551893,1.88043174303945e-06
5137.00283272283,1.88093984724838e-06
5161.95873992674,1.88143814861945e-06
5186.91464713065,1.88192684532861e-06
5211.87055433455,1.88240613197428e-06
5236.82646153846,1.88287619959588e-06
5261.78236874237,1.88333723569552e-06
5286.73827594628,1.88378942426258e-06
5311.69418315018,1.88423294580066e-06
5336.65009035409,1.88466797735681e-06
5361.605997558,1.88509469255253e-06
5386.5619047619,1.8855132616163e-06
5411.51781196581,1.88592385141743e-06
5436.47371916972,1.88632662550076e-06
5461.42962637363,1.88672174412218e-06
5486.38553357753,1.88710936428444e-06
5511.34144078144,1.88748963977315e-06
5536.29734798535,1.8878627211927e-06
5561.25325518926,1.88822875600173e-06
5586.20916239316,1.88858788854808e-06
5611.16506959707,1.88894026010276e-06
5636.12097680098,1.88928600889291e-06
5661.07688400488,1.88962527013331e-06
5686.03279120879,1.88995817605638e-06
5710.9886984127,1.89028485594027e-06
5735.94460561661,1.89060543613499e-06
5760.90051282051,1.89092004008616e-06
5785.85642002442,1.89122878835634e-06
5810.81232722833,1.89153179864361e-06
5835.76823443223,1.89182918579719e-06
5860.72414163614,1.89212106183001e-06
5885.68004884005,1.89240753592789e-06
5910.63595604396,1.89268871445527e-06
5935.59186324786,1.89296470095718e-06
5960.54777045177,1.89323559615749e-06
5985.50367765568,1.89350149795302e-06
6010.45958485959,1.89376255052336e-06
6035.41549206349,1.89401925444994e-06
6060.3713992674,1.89427177297656e-06
6085.32730647131,1.8945201715962e-06
6110.28321367521,1.89476451361325e-06
6135.23912087912,1.89500486008894e-06
6160.19502808303,1.89524126978301e-06
6185.15093528694,1.89547379909141e-06
6210.10684249084,1.89570250198007e-06
6235.06274969475,1.89592742991483e-06
6260.01865689866,1.89614863178747e-06
6284.97456410256,1.89636615383799e-06
6309.93047130647,1.89658003957323e-06
6334.88637851038,1.89679032968181e-06
6359.84228571429,1.89699706194578e-06
6384.79819291819,1.89720027114884e-06
6409.7541001221,1.89739998898158e-06
6434.71000732601,1.89759624394377e-06
6459.66591452991,1.89778906124398e-06
6484.62182173382,1.8979784626968e-06
6509.57772893773,1.89816446661791e-06
6534.53363614164,1.8983470877173e-06
6559.48954334554,1.89852633699089e-06
6584.44545054945,1.89870222161095e-06
6609.40135775336,1.89887474481561e-06
6634.35726495727,1.89904390579786e-06
6659.31317216117,1.89920969959431e-06
6684.26907936508,1.89937211697417e-06
6709.22498656899,1.89953114432889e-06
6734.18089377289,1.89968676356263e-06
6759.1368009768,1.89983895198422e-06
6784.09270818071,1.89998768220086e-06
6809.04861538462,1.90013292201401e-06
6834.00452258852,1.90027463431785e-06
6858.96042979243,1.90041277700077e-06
6883.91633699634,1.90054730285021e-06
6908.87224420024,1.90067815946133e-06
6933.82815140415,1.90080528914984e-06
6958.78405860806,1.90092862886942e-06
6983.73996581197,1.90104811013399e-06
7008.69587301587,1.9011636589454e-06
7033.65178021978,1.90127519572663e-06
7058.60768742369,1.90138263526106e-06
7083.5635946276,1.9014858866379e-06
7108.5195018315,1.90158485320437e-06
7133.47540903541,1.90167943252455e-06
7158.43131623932,1.90176951634549e-06
7183.38722344322,1.90185499057062e-06
7208.34313064713,1.90193573524068e-06
7233.29903785104,1.90201162452254e-06
7258.25494505495,1.90208252670587e-06
7283.21085225885,1.9021483042079e-06
7308.16675946276,1.90220881358645e-06
7333.12266666667,1.90226390556124e-06
7358.07857387057,1.90231342504357e-06
7383.03448107448,1.90235721117453e-06
7407.99038827839,1.90239509737163e-06
7432.9462954823,1.9024269113839e-06
7457.9022026862,1.90245247535552e-06
7482.85810989011,1.9024716058978e-06
7507.81401709402,1.90248411416959e-06
7532.76992429792,1.90248980596597e-06
7557.72583150183,1.90248848181499e-06
7582.68173870574,1.90247993708262e-06
7607.63764590965,1.90246396208546e-06
7632.59355311355,1.90244034221125e-06
7657.54946031746,1.90240885804682e-06
7682.50536752137,1.90236928551348e-06
7707.46127472528,1.90232139600943e-06
7732.41718192918,1.90226495655906e-06
7757.37308913309,1.90219972996886e-06
7782.328996337,1.9021254749897e-06
7807.2849035409,1.90204194648512e-06
7832.24081074481,1.90194889560546e-06
7857.19671794872,1.90184606996735e-06
7882.15262515263,1.90173321383854e-06
7907.10853235653,1.90161006832736e-06
7932.06443956044,1.90147637157683e-06
7957.02034676435,1.90133185896289e-06
7981.97625396825,1.90117626329651e-06
8006.93216117216,1.90100932166204e-06
8031.88806837607,1.90083087848449e-06
8056.84397557998,1.90064069054171e-06
8081.79988278388,1.90043846688555e-06
8106.75578998779,1.90022391527719e-06
8131.7116971917,1.89999674239287e-06
8156.6676043956,1.89975665403193e-06
8181.62351159951,1.89950335532679e-06
8206.57941880342,1.89923655095448e-06
8231.53532600733,1.89895594534938e-06
8256.49123321123,1.89866124291684e-06
8281.44714041514,1.89835214824728e-06
8306.40304761905,1.89802836633048e-06
8331.35895482296,1.89768960276968e-06
8356.31486202686,1.89733556399525e-06
8381.27076923077,1.89696595747743e-06
8406.22667643468,1.89658049193806e-06
8431.18258363859,1.89617887756076e-06
8456.13849084249,1.89576082619947e-06
8481.0943980464,1.89532605158493e-06
8506.05030525031,1.89487426952882e-06
8531.00621245421,1.89440519812542e-06
8555.96211965812,1.89391855795038e-06
8580.91802686203,1.89341407225647e-06
8605.87393406594,1.89289146716596e-06
8630.82984126984,1.89235047185954e-06
8655.78574847375,1.89179081876149e-06
8680.74165567766,1.89121224372086e-06
8705.69756288156,1.89061448618856e-06
8730.65347008547,1.88999728939014e-06
8755.60937728938,1.88936040049406e-06
8780.56528449328,1.88870357077536e-06
8805.52119169719,1.88802655577455e-06
8830.4770989011,1.88732911545158e-06
8855.43300610501,1.88661101433476e-06
8880.38891330891,1.88587202166459e-06
8905.34482051282,1.88511191153231e-06
8930.30072771673,1.88433046301313e-06
8955.25663492064,1.88352746029409e-06
8980.21254212454,1.88270269279637e-06
9005.16844932845,1.88185595529218e-06
9030.12435653236,1.88098704801597e-06
9055.08026373626,1.88009577677013e-06
9080.03617094017,1.87918195302496e-06
9104.99207814408,1.87824539401304e-06
9129.94798534799,1.87728592281796e-06
9154.90389255189,1.8763033684573e-06
9179.8597997558,1.87529756596007e-06
9204.81570695971,1.87426835643838e-06
9229.77161416361,1.87321558715365e-06
9254.72752136752,1.87213911157712e-06
9279.68342857143,1.87103878944484e-06
9304.63933577534,1.86991448680725e-06
9329.59524297924,1.86876607607319e-06
9354.55115018315,1.86759343604862e-06
9379.50705738706,1.86639645196998e-06
9404.46296459096,1.86517501553235e-06
9429.41887179487,1.86392902491235e-06
9454.37477899878,1.86265838478605e-06
9479.33068620269,1.86136300634179e-06
9504.28659340659,1.86004280728814e-06
9529.2425006105,1.85869771185699e-06
9554.19840781441,1.857327650802e-06
9579.15431501832,1.85593256139228e-06
9604.11022222222,1.85451238740171e-06
9629.06612942613,1.85306707909372e-06
9654.02203663004,1.85159659320186e-06
9678.97794383394,1.85010089290606e-06
9703.93385103785,1.84857994780498e-06
9728.88975824176,1.8470337338842e-06
9753.84566544567,1.84546223348073e-06
9778.80157264957,1.84386543524366e-06
9803.75747985348,1.84224333409132e-06
9828.71338705739,1.84059593116485e-06
9853.6692942613,1.83892323377844e-06
9878.6252014652,1.83722525536635e-06
9903.58110866911,1.83550201542675e-06
9928.53701587302,1.83375353946259e-06
9953.49292307692,1.83197985891957e-06
9978.44883028083,1.83018101112137e-06
10003.4047374847,1.82835703863864e-06
10028.3606446886,1.82650795073205e-06
10053.3165518926,1.82463377043329e-06
10078.2724590965,1.82273454773747e-06
10103.2283663004,1.8208103382262e-06
10128.1842735043,1.81886120299435e-06
10153.1401807082,1.81688720857472e-06
10178.0960879121,1.81488842686076e-06
10203.051995116,1.81286493502742e-06
10228.0079023199,1.81081681545026e-06
10252.9638095238,1.80874415562294e-06
10277.9197167277,1.80664704807318e-06
10302.8756239316,1.8045255902772e-06
10327.8315311355,1.80237988457297e-06
10352.7874383394,1.80021003807214e-06
10377.7433455433,1.7980161625708e-06
10402.6992527473,1.79579837445933e-06
10427.6551599512,1.79355679463116e-06
10452.6110671551,1.79129154839079e-06
10477.566974359,1.78900276536096e-06
10502.5228815629,1.78669057938924e-06
10527.4787887668,1.78435512845391e-06
10552.4346959707,1.78199655456943e-06
10577.3906031746,1.77961500369148e-06
10602.3465103785,1.77721062562157e-06
10627.3024175824,1.77478357391148e-06
10652.2583247863,1.77233400576748e-06
10677.2142319902,1.76986208195436e-06
10702.1701391941,1.76736796669953e-06
10727.126046398,1.76485182759705e-06
10752.081953602,1.76231383551179e-06
10777.0378608059,1.75975416448369e-06
10801.9937680098,1.75717299163231e-06
10826.9496752137,1.75457049706159e-06
10851.9055824176,1.75194686376495e-06
10876.8614896215,1.74930227753083e-06
10901.8173968254,1.74663692684857e-06
10926.7733040293,1.74395100281487e-06
10951.7292112332,1.74124469904078e-06
10976.6851184371,1.7385182115592e-06
11001.641025641,1.73577173873314e-06
11026.5969328449,1.73300548116453e-06
11051.5528400488,1.73021964160386e-06
11076.5087472527,1.72741442486047e-06
11101.4646544567,1.72459003771376e-06
11126.4205616606,1.72174668882512e-06
11151.3764688645,1.71888458865078e-06
11176.3323760684,1.71600394935556e-06
11201.2882832723,1.71310498472754e-06
11226.2441904762,1.71018791009368e-06
11251.2000976801,1.70725294223641e-06
11276.156004884,1.70430029931133e-06
11301.1119120879,1.70133020076576e-06
11326.0678192918,1.69834286725853e-06
11351.0237264957,1.69533852058074e-06
11375.9796336996,1.69231738357764e-06
11400.9355409035,1.68927968007164e-06
11425.8914481074,1.68622563478644e-06
11450.8473553114,1.68315547327226e-06
11475.8032625153,1.68006942183236e-06
11500.7591697192,1.67696770745052e-06
11525.7150769231,1.67385055771994e-06
11550.670984127,1.67071820077312e-06
11575.6268913309,1.66757086521308e-06
11600.5827985348,1.66440878004575e-06
11625.5387057387,1.6612321746135e-06
11650.4946129426,1.65804127853e-06
11675.4505201465,1.65483632161624e-06
11700.4064273504,1.65161753383779e-06
11725.3623345543,1.64838514524326e-06
11750.3182417582,1.64513938590402e-06
11775.2741489621,1.64188048585516e-06
11800.2300561661,1.63860867503764e-06
11825.18596337,1.63532418324165e-06
11850.1418705739,1.63202724005129e-06
11875.0977777778,1.62871807479036e-06
11900.0536849817,1.62539691646942e-06
11925.0095921856,1.62206399373409e-06
11949.9654993895,1.61871953481445e-06
11974.9214065934,1.61536376747578e-06
11999.8773137973,1.61199691897041e-06
12024.8332210012,1.60861921599075e-06
12049.7891282051,1.60523088462355e-06
12074.745035409,1.60183215030531e-06
12099.7009426129,1.5984232377788e-06
12124.6568498169,1.59500437105085e-06
12149.6127570208,1.59157577335117e-06
12174.5686642247,1.58813766709235e-06
12199.5245714286,1.58469027383101e-06
12224.4804786325,1.58123381423001e-06
12249.4363858364,1.57776850802177e-06
12274.3922930403,1.57429457397275e-06
12299.3482002442,1.57081222984889e-06
12324.3041074481,1.56732169238221e-06
12349.260014652,1.56382317723841e-06
12374.2159218559,1.56031689898557e-06
12399.1718290598,1.55680307106377e-06
12424.1277362637,1.55328190575586e-06
12449.0836434676,1.5497536141591e-06
12474.0395506716,1.54621840615789e-06
12498.9954578755,1.5426764903974e-06
12523.9513650794,1.53912807425822e-06
12548.9072722833,1.53557336383189e-06
12573.8631794872,1.53201256389741e-06
12598.8190866911,1.52844587789868e-06
12623.774993895,1.52487350792276e-06
12648.7309010989,1.52129565467912e-06
12673.6868083028,1.51771251747968e-06
12698.6427155067,1.51412429421977e-06
12723.5986227106,1.51053118135992e-06
12748.5545299145,1.50693337390843e-06
12773.5104371184,1.50333106540483e-06
12798.4663443223,1.49972444790411e-06
12823.4222515263,1.4961137119617e-06
12848.3781587302,1.49249904661928e-06
12873.3340659341,1.48888063939133e-06
12898.289973138,1.48525867625239e-06
12923.2458803419,1.48163334162512e-06
12948.2017875458,1.47800481836896e-06
12973.1576947497,1.47437328776962e-06
12998.1136019536,1.47073892952919e-06
13023.0695091575,1.46710192175687e-06
13048.0254163614,1.46346244096049e-06
13072.9813235653,1.45982066203855e-06
13097.9372307692,1.45617675827295e-06
13122.8931379731,1.45253090132234e-06
13147.849045177,1.44888326121603e-06
13172.804952381,1.44523400634852e-06
13197.7608595849,1.44158330347464e-06
13222.7167667888,1.43793131770517e-06
13247.6726739927,1.43427821250305e-06
13272.6285811966,1.43062414968017e-06
13297.5844884005,1.42696928939462e-06
13322.5403956044,1.42331379014846e-06
13347.4963028083,1.41965780878602e-06
